x,y,z,yaw,velocity,change_flag,steering_flag,accel_flag,stop_flag,event_flag
10931.188049514429,11323.058622033335,60.499951244331896,-158.06106764895648,0.0075176869735710024,0,3,0,0,0
10930.263006969704,11322.664459115826,60.48958974611014,-152.20949690955814,1.3190453429587157,0,1,0,0,0
10929.383249636856,11322.158518414013,60.475654397159815,-147.53351543670425,1.8989003278704208,0,1,0,0,0
10928.541835791431,11321.595924485475,60.45676529593766,-145.18764316555874,2.3371369690347277,0,3,0,0,0
10927.72655058233,11321.016233227216,60.445084758102894,-145.12113864671718,2.6822485212582587,0,3,0,0,0
10926.894705732237,11320.435558214784,60.4303676802665,-146.07058053944755,2.96024418049605,0,3,0,0,0
10926.024468434043,11319.854109266773,60.433133696205914,-147.5044685475718,3.2128126804294554,0,3,0,0,0
10925.126473529264,11319.2845762847,60.42888975981623,-148.76787495232256,3.4474836048117514,0,3,0,0,0
10924.211945106508,11318.736734518781,60.4230775218457,-149.93992842642274,3.6614822162796887,0,3,0,0,0
10923.29863278335,11318.212668075226,60.419192870147526,-150.93860384393963,3.860485211574373,0,3,0,0,0
10922.401104011456,11317.71457690373,60.40879190620035,-151.78571354210837,4.035127145837632,0,3,0,0,0
10921.454741880763,11317.210148421116,60.407839288935065,-152.37659825516587,4.211545474762473,0,3,0,0,0
10920.542192854802,11316.732338051312,60.40282886661589,-152.8853541187778,4.365767368186278,0,3,0,0,0
10919.592238903977,11316.248098907061,60.40215707663447,-153.3464128574147,4.516487599895045,0,3,0,0,0
10918.69070127746,11315.795285136439,60.39084797818214,-153.62759771488143,4.643776827268621,0,3,0,0,0
10917.764019217342,11315.333998419344,60.38080382812768,-153.96213372331354,4.754058059120886,0,3,0,0,0
10916.813510264154,11314.87051929161,60.369735307991505,-154.24955531294418,4.850614577964592,0,3,0,0,0
10915.845041223336,11314.40116132237,60.3648938909173,-154.49309539336707,4.930673753987688,0,3,0,0,0
10914.859106923337,11313.929542851634,60.360910434275866,-154.55731215966293,4.996459013939588,0,3,0,0,0
10913.953000594745,11313.495029333048,60.36243784241378,-154.53766914248374,5.048727833812375,0,3,0,0,0
10913.036445273901,11313.054584996775,60.35551372356713,-154.46375231963964,5.110546415617476,0,3,0,0,0
10912.110245276708,11312.608422002755,60.3558797640726,-154.4100399889006,5.160852577886818,0,3,0,0,0
10911.175284925615,11312.155325713567,60.36866202391684,-154.3597313610319,5.2247372373721275,0,3,0,0,0
10910.229661641759,11311.698028457351,60.36854488682002,-154.2671737572356,5.273517990917564,0,3,0,0,0
10909.277640009648,11311.234736274928,60.36369253695011,-154.20497765637694,5.32249673925505,0,3,0,0,0
10908.317592839594,11310.766725857742,60.35302370134741,-154.13253684527206,5.358297927105234,0,3,0,0,0
10907.35405100463,11310.292510133237,60.34828787762672,-154.1497326330861,5.3832100863084165,0,3,0,0,0
10906.385286469595,11309.819926110096,60.34923538006842,-154.1048822962071,5.404316762192629,0,3,0,0,0
10905.413629795774,11309.34447375685,60.33681887201965,-154.16476889876103,5.410714185801666,0,3,0,0,0
10904.439603247447,11308.868705731817,60.33700192347169,-154.15957391647174,5.424679271214066,0,3,0,0,0
10903.464269716293,11308.393224776722,60.34634864702821,-154.19036395306776,5.433903710881123,0,3,0,0,0
10902.486663256539,11307.917631641962,60.348950172774494,-154.21348049311322,5.442452824905447,0,3,0,0,0
10901.508215378271,11307.442004122771,60.35921835433692,-154.25423501691625,5.4424413757629315,0,3,0,0,0
10900.527923847898,11306.966822906397,60.3637654511258,-154.28399371836898,5.447408132971499,0,3,0,0,0
10899.548170838389,11306.492532323115,60.35538858920336,-154.33287570381088,5.439075034296176,0,3,0,0,0
10898.568981194636,11306.019274147227,60.345308765769005,-154.36430501092855,5.439739135053599,0,3,0,0,0
10897.588852774817,11305.546650849283,60.33656833600253,-154.37996766798918,5.437251907446097,0,3,0,0,0
10896.609920136863,11305.074481176212,60.344576987437904,-154.4200739320381,5.436915038205559,0,3,0,0,0
10895.63051583455,11304.60225946363,60.3367260042578,-154.44436285446233,5.442884725024384,0,3,0,0,0
10894.649918632698,11304.129156968556,60.321486074477434,-154.5063754256506,5.448066000239616,0,3,0,0,0
10893.66881289531,11303.656346752308,60.322857237420976,-154.52146113750265,5.452758623689051,0,3,0,0,0
10892.686615596991,11303.183122938499,60.31588788703084,-154.58015365431694,5.464480955081487,0,3,0,0,0
10891.701129847905,11302.711451646872,60.30168525595218,-154.61612453697362,5.471891278441311,0,3,0,0,0
10890.714741804404,11302.238177174702,60.300435927696526,-154.6743301623604,5.47390536000269,0,3,0,0,0
10889.725707648555,11301.76587662287,60.28838178049773,-154.6804194887333,5.493917029267464,0,3,0,0,0
10888.733536399086,11301.295856149867,60.274507431313396,-154.71739931725122,5.4990370713003385,0,3,0,0,0
10887.742296572891,11300.822878371924,60.269794958643615,-154.74515431946176,5.495853331591066,0,3,0,0,0
10886.750424896367,11300.35257991124,60.26095133088529,-154.76318618939538,5.487921580160303,0,3,0,0,0
10885.759746445925,11299.881232388318,60.24482502695173,-154.79557755387722,5.489193982548053,0,3,0,0,0
10884.769478199421,11299.411251102574,60.23923535272479,-154.7978551712735,5.479815960208885,0,3,0,0,0
10883.78043282684,11298.940942766145,60.238018503412604,-154.82603903671006,5.47666574413059,0,3,0,0,0
10882.791527716792,11298.469722056761,60.22584146913141,-154.84976556793663,5.482452369181301,0,3,0,0,0
10881.801709682797,11297.998761514202,60.21676539815962,-154.88070231812966,5.487105288787017,0,3,0,0,0
10880.811028571567,11297.529028192163,60.21031005773693,-154.8912206175057,5.48467486694111,0,3,0,0,0
10879.81972579786,11297.05911567714,60.192541803233325,-154.9067785912134,5.492147678960492,0,3,0,0,0
10878.827174175414,11296.589709599502,60.17569009587169,-154.89992377258167,5.493212738599913,0,3,0,0,0
10877.834933188278,11296.119153741747,60.17747762799263,-154.94402365016776,5.4912960265183965,0,3,0,0,0
10876.842297052965,11295.649240752682,60.174023604020476,-154.9617447625267,5.493968972922528,0,3,0,0,0
10875.847634543432,11295.179214145988,60.15863795392215,-154.99560427854723,5.509395097191927,0,3,0,0,0
10874.850883053732,11294.707427855581,60.14936168957502,-155.01027747304576,5.521447266681721,0,3,0,0,0
10873.849080642802,11294.236715726554,60.14308568928391,-155.0452642823216,5.551642482092223,0,3,0,0,0
10872.944337332621,11293.810354602523,60.124040574766695,-155.06887530554582,5.572703246247009,0,3,0,0,0
10872.035609247745,11293.384265156463,60.10779271554202,-155.08272160719054,5.586252935790452,0,3,0,0,0
10871.123261802015,11292.956935057417,60.0932142585516,-155.11331703703542,5.607087413737079,0,3,0,0,0
10870.207751857466,11292.527677270584,60.07899174373597,-155.11339960699954,5.627886555608879,0,3,0,0,0
10869.288915468962,11292.09748929087,60.066598176024854,-155.13788459618215,5.647748405901641,0,3,0,0,0
10868.367275990895,11291.666223409586,60.05247381236404,-155.14530441807293,5.666148552287216,0,3,0,0,0
10867.442430816242,11291.233465852216,60.03701794240624,-155.17240780483434,5.6914086405497315,0,3,0,0,0
10866.513040080084,11290.800245151855,60.02201857417822,-155.17412802761476,5.716308475947401,0,3,0,0,0
10865.579798842547,11290.363611906767,60.00599484797567,-155.16994646446216,5.735637861074563,0,3,0,0,0
10864.642551733414,11289.925294992514,59.989750635810196,-155.13276006022593,5.762380635096578,0,3,0,0,0
10863.699818541761,11289.484578341246,59.965012702159584,-155.10350038157443,5.802967086089015,0,3,0,0,0
10862.752049719333,11289.039239976555,59.93814570270479,-155.08487879388503,5.834646136580122,0,3,0,0,0
10861.799187839497,11288.591618505307,59.92682102601975,-155.03772360435246,5.865128574762023,0,3,0,0,0
10860.840316923684,11288.139750980772,59.91234885621816,-155.00200324987284,5.910256428350089,0,3,0,0,0
10859.87390082993,11287.685479370877,59.88672749418765,-154.95078553510592,5.950535690891493,0,3,0,0,0
10858.90226083924,11287.225146684796,59.872659865766764,-154.94500871637263,5.987452692643112,0,3,0,0,0
10857.924040469574,11286.76260303054,59.86287325527519,-154.86377278587514,6.038315880161482,0,3,0,0,0
10856.938740600832,11286.298831507564,59.84364096540958,-154.83204752230046,6.063790547698671,0,3,0,0,0
10855.949176037684,11285.828645481728,59.825167373754084,-154.80825969225538,6.103543454567467,0,3,0,0,0
10854.954404575052,11285.355020456947,59.81295594200492,-154.75897070126058,6.136588144102054,0,3,0,0,0
10853.954784103436,11284.879528040066,59.80085546243936,-154.71400625134405,6.16200092110003,0,3,0,0,0
10852.949716880103,11284.40096546337,59.78816999681294,-154.683040362804,6.199151215971929,0,3,0,0,0
10851.941607149318,11283.917192485183,59.781828426755965,-154.64886844709054,6.2249710205109015,0,3,0,0,0
10850.929021086311,11283.43363940157,59.774411203339696,-154.6151686817562,6.253640994712803,0,3,0,0,0
10850.025072047254,11283.0013451688,59.757421026937664,-154.6018292142038,6.272481762460215,0,3,0,0,0
10849.118632076657,11282.565877575427,59.74920845311135,-154.59683397153998,6.294838573955347,0,3,0,0,0
10848.208892876632,11282.130475518294,59.753686032257974,-154.60445219324146,6.31300037617981,0,3,0,0,0
10847.29633628449,11281.693851519376,59.7393488753587,-154.64553916178426,6.323736804924495,0,3,0,0,0
10846.38159076206,11281.256728674285,59.71517295949161,-154.74576450518472,6.340822215751154,0,3,0,0,0
10845.465288837906,11280.820036691613,59.70441478211433,-154.92215544632708,6.3388087584830455,0,3,0,0,0
10844.546468930203,11280.387756080367,59.703869444318116,-155.0925509763053,6.343368302010953,0,3,0,0,0
10843.627016167273,11279.957661254331,59.70208909641951,-155.26111175291092,6.33981803457843,0,3,0,0,0
10842.707226547413,11279.529879094101,59.69843537453562,-155.4049539723839,6.338966889847322,0,3,0,0,0
10841.786701334408,11279.103968644515,59.69494802225381,-155.55629302951303,6.337605396749454,0,3,0,0,0
10840.864855625434,11278.681467149407,59.68990330584347,-155.6737546364446,6.3409200575691855,0,3,0,0,0
10839.94309637195,11278.259038108401,59.68125484138727,-155.73678089664872,6.335130668633074,0,3,0,0,0
10839.020405982388,11277.839688888751,59.6674561323598,-155.76304885656603,6.336856075517369,0,3,0,0,0
10838.09764296189,11277.421851779334,59.658183987252414,-155.78390628525946,6.329065229318176,0,3,0,0,0
10837.176954796189,11277.001875476912,59.64930445421487,-155.82132514660503,6.31613838103914,0,3,0,0,0
10836.257265743217,11276.585088579915,59.64447499718517,-155.82872657482827,6.301625686531865,0,3,0,0,0
10835.338929770049,11276.16881725099,59.63828020449728,-155.86447172987053,6.2890419811482134,0,3,0,0,0
10834.423597424175,11275.751095336862,59.63145094271749,-155.87093763189614,6.274655674895476,0,3,0,0,0
10833.51035837538,11275.335944104008,59.626876945607364,-155.86730269730376,6.254401660452013,0,3,0,0,0
10832.486126758158,11274.872702656314,59.60986380651593,-155.85673651192744,6.230051361219584,0,3,0,0,0
10831.466783159529,11274.408578987233,59.584844686090946,-155.87826865709553,6.2064552573745555,0,3,0,0,0
10830.451354547171,11273.948913403787,59.57780492026359,-155.8727952286474,6.170342466722482,0,3,0,0,0
10829.440942134941,11273.491801090539,59.58097968250513,-155.89619504625364,6.144591955772557,0,3,0,0,0
10828.434655122925,11273.037230174057,59.573110058903694,-155.90048086471174,6.122201079635562,0,3,0,0,0
10827.431157592917,11272.583684021607,59.55785429850221,-155.90378518576028,6.1012143207713105,0,3,0,0,0
10826.430079862825,11272.131105334498,59.54402246605605,-155.87405059759013,6.089588068172501,0,3,0,0,0
10825.43142037047,11271.679717833176,59.53447134047747,-155.8860066193712,6.085774605691179,0,3,0,0,0
10824.434850970749,11271.227598932572,59.51897851098329,-155.88591455477996,6.07357492560242,0,3,0,0,0
10823.439824234927,11270.778430611826,59.50565920583904,-155.86292457266515,6.056628927760377,0,3,0,0,0
10822.447491213214,11270.329921537079,59.48816175572574,-155.86157323951824,6.0433749524700975,0,3,0,0,0
10821.457990649622,11269.88241775427,59.46511941123754,-155.84710395128508,6.023314210096169,0,3,0,0,0
10820.472807879793,11269.43536501564,59.45880737248808,-155.85599451398954,5.992786853977767,0,3,0,0,0
10819.49273908732,11268.992435393855,59.458253463730216,-155.8139922231685,5.957360940892485,0,3,0,0,0
10818.518026537262,11268.55129712075,59.44742643926293,-155.79896505103977,5.924670867554198,0,3,0,0,0
10817.549698417773,11268.11220945511,59.437858410179615,-155.77064554344537,5.883002848122052,0,3,0,0,0
10816.589328591013,11267.674668378197,59.440227190963924,-155.74776978897467,5.8422545576465135,0,3,0,0,0
10815.633716093376,11267.241027254611,59.42941068857908,-155.68683334666355,5.813016528260501,0,3,0,0,0
10814.683447686955,11266.809480695054,59.41486126091331,-155.67037887869583,5.783317093746602,0,3,0,0,0
10813.740711125778,11266.37688306719,59.409330115653574,-155.63647009436926,5.747674218470779,0,3,0,0,0
10812.803120810539,11265.948363651522,59.39124816656113,-155.55903596741993,5.703429388978202,0,3,0,0,0
10811.870037847199,11265.523411342874,59.36915307119489,-155.47996815714896,5.678107154278352,0,3,0,0,0
10810.945435995585,11265.097006522119,59.36212512105703,-155.35806766456088,5.631777920689177,0,3,0,0,0
10810.028690986335,11264.670733459294,59.357751111499965,-155.23659526568585,5.60146350534955,0,3,0,0,0
10809.117189454846,11264.249485887587,59.34589787758887,-155.0795788290604,5.562648182322121,0,3,0,0,0
10808.114166780375,11263.779435974546,59.33678893838078,-154.94367675239525,5.516677452079068,0,1,0,0,0
10807.119848468574,11263.311292734928,59.328463615849614,-154.75557923625718,5.473029130330508,0,1,0,0,0
10806.134118092363,11262.84402576182,59.31504765897989,-154.57820910039337,5.435294955694884,0,1,0,0,0
10805.157706778264,11262.377315440215,59.297688842751086,-154.34976120997644,5.385543222954311,0,1,0,0,0
10804.19120703591,11261.910034520552,59.29090443160385,-154.10670530436389,5.348773456981828,0,1,0,0,0
10803.2353853042,11261.440415295772,59.28282429557294,-153.76446250148362,5.308806415592587,0,1,0,0,0
10802.28923931194,11260.96926948987,59.28110375627875,-153.3396627590463,5.2680375980545495,0,1,0,0,0
10801.353562249104,11260.493896803819,59.27015220094472,-152.75667371513168,5.219359013143889,0,1,0,0,0
10800.430511018261,11260.012865207158,59.260242263786495,-151.80069304520802,5.183784811159312,0,1,0,0,0
10799.523655079305,11259.51949618198,59.23927113041282,-150.18487777526994,5.152338670136752,0,1,0,0,0
10798.641910936683,11259.002900462598,59.22522951103747,-148.04448196759836,5.086699070713623,0,1,0,0,0
10797.791089706472,11258.456941100769,59.22588341590017,-145.45860807555462,5.024393181080357,0,1,0,0,0
10796.898043174064,11257.81854467094,59.20910628326237,-142.24266140682698,4.957449554654704,0,1,0,0,0
10796.055796056055,11257.138490096666,59.20689531415701,-138.5233727902262,4.890325924056437,0,1,0,0,0
10795.271770742256,11256.41188615933,59.20244888961315,-134.60986944974314,4.825153743670369,0,1,0,0,0
10794.5486479284,11255.64667824842,59.19801852945238,-130.54998958852585,4.74914097858282,0,1,0,0,0
10793.895728467032,11254.839908163995,59.176547278650105,-126.13758384252408,4.704145706974293,0,1,0,0,0
10793.308445215225,11253.99109529145,59.16586116235703,-121.67970202504003,4.707442863007755,0,1,0,0,0
10792.791443107184,11253.103440368548,59.15484715811908,-117.15245525888733,4.663625028534479,0,1,0,0,0
10792.350885254215,11252.175282320008,59.13315196800977,-112.47433355598498,4.681804094147825,0,1,0,0,0
10791.990223762346,11251.212211207487,59.100559217855334,-107.74551873557579,4.681923439405196,0,1,0,0,0
10791.706841441686,11250.222118791193,59.08681283611804,-103.00315148568589,4.69789929283935,0,1,0,0,0
10791.502787031233,11249.210471317172,59.069844944402575,-98.29356992378528,4.703017732700693,0,1,0,0,0
10791.386165738106,11248.185061912984,59.06181630771607,-93.60213245857523,4.690797723207642,0,1,0,0,0
10791.36057144194,11247.149692997336,59.05933233164251,-89.0658373025452,4.725404884813,0,1,0,0,0
10791.402165231062,11246.109254514799,59.038882185705006,-84.74553735691963,4.739077142807308,0,1,0,0,0
10791.53199962445,11245.067752411589,59.01541591063142,-80.59542665236827,4.787138142601007,0,1,0,0,0
10791.740079368697,11244.027999239974,58.989467641338706,-76.55145400418968,4.850026747490895,0,1,0,0,0
10792.017673412338,11242.993738813326,58.99956478737295,-73.23247386869326,4.894594151356259,0,3,0,0,0
10792.354468937265,11241.963483925909,58.97294188197702,-70.29979072381411,4.967767441660971,0,3,0,0,0
10792.757391679217,11240.942248853855,58.955086710862815,-67.90478147498345,5.021445948697662,0,3,0,0,0
10793.158638422377,11240.014068628661,58.942934517748654,-66.18673231364512,5.086241841857368,0,3,0,0,0
10793.5837778016,11239.08122029528,58.918997472152114,-64.98053711518779,5.158932455544908,0,3,0,0,0
10794.03963428922,11238.145611233078,58.877172492444515,-64.09447857675528,5.219130916482413,0,3,0,0,0
10794.512866671896,11237.204567097127,58.85159076098353,-63.24813795936017,5.290662813042216,0,3,0,0,0
10794.999790549395,11236.255003654398,58.8172696614638,-62.53778339418066,5.354562468640371,0,3,0,0,0
10795.503828546032,11235.300198684447,58.78096245415509,-61.82479202293852,5.405530850497935,0,3,0,0,0
10796.031646264484,11234.34530700557,58.75579293817282,-61.262547856886606,5.478717526679528,0,3,0,0,0
10796.565284540295,11233.379778808914,58.71828358247876,-60.765402584992906,5.5334148180782,0,3,0,0,0
10797.063110117102,11232.511277361773,58.685859818942845,-60.45080675482343,5.56950064490504,0,3,0,0,0
10797.56312222418,11231.637458823621,58.653961909003556,-59.99670624588482,5.591873619667674,0,3,0,0,0
10798.071430344717,11230.763745243661,58.620933649130166,-59.70973336924383,5.60913284743808,0,3,0,0,0
10798.588856504764,11229.894322579727,58.60089183598757,-59.416122723281404,5.61120291095422,0,3,0,0,0
10799.10781920841,11229.02864302136,58.60032506193966,-59.12546617771187,5.5844866510210505,0,3,0,0,0
10799.624959150678,11228.166813470423,58.59283275809139,-58.86140781937318,5.568508507683624,0,3,0,0,0
10800.144120913697,11227.309835820459,58.58156975824386,-58.63888262219597,5.561045308128509,0,3,0,0,0
10800.722277779365,11226.3710235795,58.585058748722076,-58.524983591254255,5.476341086680439,0,3,0,0,0
10801.294797248673,11225.441147734411,58.59506926406175,-58.395989421707554,5.42600406917905,0,3,0,0,0
10801.865539767081,11224.521097794175,58.58144885394722,-58.32609690388232,5.375500112202601,0,3,0,0,0
10802.429908504128,11223.607112233527,58.58860970940441,-58.25107504722734,5.342767319936349,0,3,0,0,0
10802.995219316334,11222.703625403345,58.59002697747201,-58.251123037414054,5.30475730175865,0,3,0,0,0
10803.55677522067,11221.805601133965,58.56859763432294,-58.21945760594588,5.278808377965206,0,3,0,0,0
10804.109974580118,11220.911218701862,58.54631700273603,-58.17842063261928,5.23065101717292,0,3,0,0,0
10804.66083063872,11220.02614023257,58.54062895104289,-58.23811118715585,5.189603292278234,0,3,0,0,0
10805.210286526242,11219.14944901783,58.52906378451735,-58.27538596726384,5.143494314216905,0,3,0,0,0
10805.749226565124,11218.279019935988,58.521206005476415,-58.279949994873476,5.089101429571251,0,3,0,0,0
10806.282064867555,11217.41467037145,58.52250110823661,-58.23358008057552,5.061338236323533,0,3,0,0,0
10806.811756778625,11216.557192050852,58.508875717408955,-58.223593636449834,5.006117867611786,0,3,0,0,0
10807.392544521252,11215.626835723408,58.50673858821392,-58.244676154078796,4.955351790651672,0,3,0,0,0
10807.964795929613,11214.705094457604,58.483101167716086,-58.228318177196314,4.912160001540011,0,1,0,0,0
10808.530402930104,11213.792522284202,58.46807846985757,-58.17616924187463,4.854842553476718,0,1,0,0,0
