x,y,z,yaw,velocity,change_flag,steering_flag,accel_flag,stop_flag,event_flag
1341.3388794477796,2414.7368552749977,60.403236714191735,157.18278418349888,10.392724005627079,0,3,0,0,0
1339.4351933155558,2415.5299821272492,60.386803100816905,157.13274703037598,10.246660603174835,0,3,0,0,0
1337.5609421327827,2416.3143140347674,60.36756844352931,157.0335994666487,10.084457790869898,0,3,0,0,0
1335.7168677264708,2417.0892928279936,60.361355542205274,156.9248480850688,9.924126527481393,0,3,0,0,0
1333.726372716308,2417.929064663127,60.3554868651554,156.7467633025835,9.724702872378359,0,3,0,0,0
1331.781568105158,2418.7589516714215,60.3409730726853,156.48840247131542,9.490466476900268,0,3,0,0,0
1329.8870813550893,2419.578082434833,60.32397584337741,156.1452903430389,9.266781239535312,0,3,0,0,0
1328.0475882634637,2420.385634224862,60.318639824166894,155.73247868322392,9.003305295648822,0,3,0,0,0
1326.1098398505128,2421.2512849299237,60.32173463329673,155.21674992175548,8.692221460803946,0,3,0,0,0
1324.2524129404337,2422.1074916906655,60.3216022439301,154.65188684821365,8.359894244367874,0,3,0,0,0
1322.3369006321882,2423.0171623211354,60.323454370722175,153.99553479012334,7.9523329147814055,0,3,0,0,0
1320.5318493559607,2423.9001353243366,60.32012794353068,153.1435185844838,7.510860708932074,0,3,0,0,0
1318.7210969057633,2424.8248716471717,60.31941736675799,152.01674920822333,7.021467275881151,0,3,0,0,0
1316.9371508125914,2425.7846132442355,60.31962343212217,150.6588308116519,6.49236951963064,0,3,0,0,0
1315.111874856695,2426.8319186149165,60.31937277596444,149.02652848952135,5.887401920606914,0,3,0,0,0
1313.403422760195,2427.875107003376,60.3177513666451,147.18595057503478,5.237534145817914,0,3,0,0,0
1311.7041911493288,2429.005194936879,60.318917414173484,144.94091604737582,4.484886366841104,0,3,0,0,0
1310.0602703577606,2430.1982510704547,60.313000191003084,142.35438815546135,3.65512395354755,0,3,0,0,0
1308.4894471677253,2431.458631452173,60.31329473480582,139.6149274904604,2.6440024734430496,0,3,0,0,0
1306.9902933923877,2432.786223690957,60.3062879871577,136.73196295751836,1.0172283111775071,0,3,0,0,0
1305.5454211088363,2434.2042433088645,60.28794077038765,133.3512400818186,1.3922851667121274,0,3,0,0,0
1304.1775199384429,2435.7395267812535,60.29136407375336,128.63614074795598,2.9421601399434243,0,3,0,0,0
1302.9772500711842,2437.350670450367,60.31444557290524,123.51032564014263,3.981412224470324,0,3,0,0,0
1301.92042712291,2439.0581754408777,60.370093662291765,118.45767158306136,4.748472319377968,0,3,0,0,0
1301.003205337096,2440.8738306583837,60.411934613250196,113.96834567617675,5.37901842137534,0,3,0,0,0
1300.2233742334647,2442.742101266049,60.45051007717848,110.53522541815245,5.813815263910167,0,3,0,0,0
1299.5344329475774,2444.6687654582784,60.47922257706523,108.20584585712675,6.192097897651148,0,3,0,0,0
1298.9105910770595,2446.617491154,60.498073955997825,107.51910562466728,6.543790900595038,0,3,0,0,0
1298.2964053170872,2448.525395348668,60.5164000056684,108.4496620201632,6.734038370773106,0,3,0,0,0
1297.6299029419315,2450.4477326991037,60.52640076447278,110.35106809587505,6.794593396596281,0,3,0,0,0
1296.8833214450278,2452.3570219455287,60.53572495933622,113.06719651093958,6.848412810093386,0,3,0,0,0
1296.0277723910986,2454.2350098285824,60.545622969046235,116.64462703220093,6.883815220637994,0,3,0,0,0
1295.0446989533375,2456.062254776247,60.552339910529554,120.95572222959665,6.922426542335425,0,3,0,0,0
1293.9174055950134,2457.807068786584,60.560861855745316,125.67436570058618,6.9228996089041,0,3,0,0,0
1292.653901521815,2459.450204066932,60.561588927172124,130.71335794854073,6.901372958913728,0,3,0,0,0
1291.249541019788,2460.969224962406,60.5643990682438,135.82825833848946,6.8949047417670855,0,3,0,0,0
1289.7169495918788,2462.35121311713,60.55895162187517,141.11308805047065,6.877395819338469,0,3,0,0,0
1288.0679893436027,2463.582125105895,60.56394769065082,146.47186934381173,6.864910310738102,0,3,0,0,0
1286.3143616709858,2464.6493697371334,60.566934120841324,152.01989495279255,6.844283322959174,0,3,0,0,0
1284.4706552390126,2465.537542846985,60.56857392564416,157.69204077419025,6.807066592260544,0,3,0,0,0
1282.5663822342176,2466.234019553289,60.5756197180599,163.33431027734142,6.729860594257138,0,3,0,0,0
1280.6213693899335,2466.7332239924,60.57362028490752,168.95968267298196,6.685620168828435,0,3,0,0,0
1278.641835082497,2467.036800804548,60.58038970641792,174.5362085671641,6.6874535487863636,0,3,0,0,0
1276.6406341900583,2467.1459119375795,60.57313364557922,-179.96876945670707,6.6968412393960275,0,3,0,0,0
1274.6357298314106,2467.065316412598,60.560282045044005,-174.50131305993312,6.697726878201718,0,3,0,0,0
1272.647126128897,2466.794853561558,60.564395716413856,-168.95564908997991,6.696457290141378,0,3,0,0,0
1270.6954787807772,2466.3327668579295,60.57860977202654,-163.45324770530394,6.690792894032821,0,3,0,0,0
1268.7969425892225,2465.681591699831,60.58258465398103,-158.0314920277,6.712215833221799,0,3,0,0,0
1266.9536468935548,2464.8518021814525,60.584569248370826,-152.98677195250704,6.784294323390787,0,3,0,0,0
1265.161081121827,2463.852304388769,60.57528729829937,-148.26163945925776,6.9078030008880225,0,3,0,0,0
1263.4224666336086,2462.6924376692623,60.556510392576456,-143.92393990891114,7.038779195603593,0,3,0,0,0
1261.7459426861606,2461.382359375246,60.539037527516484,-139.40878855802836,7.156856459806238,0,2,0,0,0
1260.257348411309,2460.020441632718,60.52640991099179,-135.04185795031853,7.263231428733619,0,2,0,0,0
1258.8570034436416,2458.5296705123037,60.518628457561135,-130.5585946964393,7.357457222816825,0,2,0,0,0
1257.5621480183909,2456.9132192470133,60.5116714425385,-125.9172785334319,7.4499273186646375,0,2,0,0,0
1256.3865438561188,2455.177050619386,60.509755501523614,-121.18205618258843,7.541163434923934,0,2,0,0,0
1255.3483744686819,2453.3275060299784,60.50895214732736,-116.41281681681683,7.623962845388843,0,2,0,0,0
1254.4558256185264,2451.3762823101133,60.50708091259003,-111.77241527692819,7.720703661999319,0,2,0,0,0
1253.7613224786473,2449.482767019421,60.500149556435645,-107.8496667946422,7.8137392481583845,0,2,0,0,0
1253.1855040264782,2447.523704316467,60.48985586874187,-104.20775145479996,7.910679515618522,0,2,0,0,0
1252.727121684933,2445.507744374685,60.47414693329483,-101.06884770219536,8.00927190409064,0,2,0,0,0
1252.3692912618862,2443.4444369254634,60.46267053857446,-98.48049987703897,8.105095868919378,0,2,0,0,0
1252.091763735807,2441.3411243893206,60.44254441000521,-96.755438226425,8.217149554700331,0,2,0,0,0
1251.863203225541,2439.202751708217,60.424649173393846,-95.7041281774205,8.333409532160873,0,2,0,0,0
1251.681688882003,2437.1986218728125,60.38862678501755,-95.09929067655058,8.43942515678546,0,2,0,0,0
1251.5160400730674,2435.166843677871,60.363683628849685,-94.73424243661646,8.546830666219927,0,2,0,0,0
1251.3583757631131,2433.107344644144,60.34303501993418,-94.5835703335408,8.671272857704496,0,2,0,0,0
1251.2016723346314,2431.0148972216994,60.327057550661266,-94.44417108413518,8.819365689131159,0,2,0,0,0
1251.0463725889567,2428.882534342818,60.305960174649954,-94.40464991343916,9.002660549830534,0,2,0,0,0
1250.9008868723176,2426.8862811420113,60.2775693545118,-94.6127626108344,9.198204383505,0,2,0,0,0
1250.7400402254425,2424.84621652402,60.252925995737314,-94.88614041755937,9.391693125536674,0,3,0,0,0
1250.5660756219295,2422.7665347112343,60.23236850928515,-95.27739054134355,9.574329402314909,0,3,0,0,0
1250.3730450695148,2420.6505019497126,60.20801593735814,-95.77445439654481,9.736247668511004,0,3,0,0,0
1250.155902754399,2418.5010691583157,60.1856739083305,-96.3787616765002,9.896648156791416,0,3,0,0,0
1249.909382154292,2416.3190407762304,60.16524150874466,-97.09164421978943,10.056681092346135,0,3,0,0,0
1249.6576017294428,2414.3080084500834,60.14368751179427,-97.8457093708502,10.203035838782819,0,3,0,0,0
1249.373817015672,2412.2724075065926,60.123655773699284,-98.71353604930519,10.347246134719027,0,3,0,0,0
1249.053438502422,2410.2104574972764,60.101412816904485,-99.64009706181835,10.515787277102106,0,3,0,0,0
1248.6934353157994,2408.119860453531,60.09236372541636,-100.6004838275598,10.696418421796004,0,3,0,0,0
1248.2918552241754,2406.000369596295,60.08077129535377,-101.63128914153073,10.876237644022021,0,3,0,0,0
1247.8449534745305,2403.853697593324,60.06086711585522,-102.70941575966562,11.049416093064766,0,3,0,0,0
1247.4014545147074,2401.900373607874,60.0520103899762,-103.70010316990175,11.20639282571457,0,3,0,0,0
1246.9171618154505,2399.9287352543324,60.04547255113721,-104.72255752643679,11.354617870506328,0,3,0,0,0
1246.391136580438,2397.9397772448137,60.04424555785954,-105.71972849417556,11.509632490918614,0,3,0,0,0
1245.8221842797357,2395.9333325019106,60.046274015679955,-106.65681327524793,11.664277235112518,0,3,0,0,0
1245.2144827285665,2393.9078699927777,60.042630094103515,-107.51426493403851,11.825698267997511,0,3,0,0,0
1244.5681809135713,2391.8646850492805,60.04630698636174,-108.32173513899266,11.980776515351709,0,3,0,0,0
1243.8842737757368,2389.8048873441294,60.05626428127289,-109.06230321994528,12.129168860103869,0,3,0,0,0
1243.1674143067212,2387.72700005956,60.063459428958595,-109.79559295214565,12.291911135730317,0,3,0,0,0
1242.415708597866,2385.6326829465106,60.07269341032952,-110.56827080662907,12.446327695709797,0,3,0,0,0
1241.7127820251626,2383.7581264367327,60.06887761969119,-111.17091893007446,12.586093568835937,0,3,0,0,0
1240.9812308943947,2381.869922674261,60.0586552452296,-111.69525470133776,12.735209556080013,0,3,0,0,0
1240.2258657252532,2379.966775561683,60.05486402194947,-112.19557910563762,12.874293586276062,0,3,0,0,0
1239.44617002015,2378.0485244644806,60.048370704986155,-112.63267275526638,13.022468994928282,0,3,0,0,0
1238.6421524342732,2376.115787440911,60.04106944706291,-113.00062439333756,13.158191000283294,0,3,0,0,0
1237.8171376484097,2374.167357586324,60.03625317569822,-113.33006270793886,13.306891267254066,0,3,0,0,0
1236.9740045457147,2372.2013823091984,60.025296583771706,-113.65064159483344,13.453212540440784,0,3,0,0,0
1236.1120368519332,2370.2178618526086,60.00955763179809,-113.96231164161178,13.603911722674683,0,3,0,0,0
1235.229067395907,2368.217734050937,59.994476581923664,-114.25461235141435,13.744994265213963,0,3,0,0,0
1234.324415537063,2366.2012890316546,59.98007678426802,-114.51057124317545,13.896770189108796,0,3,0,0,0
1233.4012217498384,2364.167386393994,59.9642568603158,-114.77228135394034,14.04501274109176,0,3,0,0,0
1232.4602946672821,2362.1161291720346,59.94288430083543,-115.05186288179559,14.193737333645855,0,3,0,0,0
1231.4999300203053,2360.048752152361,59.916940909810364,-115.32246705550405,14.334864454603418,0,3,0,0,0
1230.6435564581188,2358.2280062017962,59.896234611049294,-115.54787994319199,14.437133434197536,0,3,0,0,0
1229.7751646701363,2356.400222093798,59.87948716431856,-115.77500345125205,14.505228093211143,0,3,0,0,0
1228.8961601747433,2354.5676606018096,59.860261232592165,-116.00579278512599,14.563794795387155,0,3,0,0,0
1228.0069362221984,2352.7320129862055,59.8380367802456,-116.2380205841367,14.609290928395833,0,3,0,0,0
1227.1074075097567,2350.8941881284118,59.81699333060533,-116.43765594527638,14.653611149303572,0,3,0,0,0
1226.1990790927666,2349.054356086068,59.79673038236797,-116.56974571563184,14.698078923711083,0,3,0,0,0
1225.2839386155829,2347.211250086315,59.77395922783762,-116.63668799375179,14.748386722369593,0,3,0,0,0
1224.363381933479,2345.363197930157,59.75041295867413,-116.66907526367717,14.793234403192923,0,3,0,0,0
1223.4394711276982,2343.509708834812,59.73106580879539,-116.70422327789765,14.839182462447253,0,3,0,0,0
1222.511729138787,2341.6509126154706,59.71355192735791,-116.74173980143024,14.883848523530942,0,3,0,0,0
1221.5801491343882,2339.7869876539335,59.69402812048793,-116.76732985939556,14.931866782584441,0,3,0,0,0
1220.644585981383,2337.9177191518247,59.672451209276915,-116.78726551297463,14.980212131812134,0,3,0,0,0
1219.706551038602,2336.043184539303,59.64944179356098,-116.80915147666951,15.023212406404618,0,3,0,0,0
1218.764570746629,2334.163953243755,59.62622616626322,-116.80797825246658,15.070317740065867,0,3,0,0,0
1217.8197942805127,2332.2794082798064,59.60162136144936,-116.79701292211698,15.107571428854776,0,3,0,0,0
1216.8734606665093,2330.3896022271365,59.57630781084299,-116.79357978185236,15.139185541146785,0,3,0,0,0
1215.9258931854856,2328.49544671271,59.55133461300284,-116.78969724157011,15.17224289787908,0,3,0,0,0
1214.9759258234408,2326.5973811745644,59.5247986773029,-116.78596128586317,15.20221827965746,0,3,0,0,0
1214.0237871607533,2324.69601401221,59.495521877892315,-116.77292964896311,15.22468429855675,0,3,0,0,0
1213.0703903466929,2322.7920137671754,59.46987586282194,-116.7660783586708,15.243480063620257,0,3,0,0,0
1212.11733063648,2320.8865809626877,59.445068426430225,-116.76058049552219,15.256653614069583,0,3,0,0,0
1211.163473085151,2318.9799137329683,59.418570700101554,-116.75481442786457,15.264884846594185,0,3,0,0,0
1210.2095677248435,2317.0724607352167,59.38966031000018,-116.7500315526168,15.266230159063412,0,3,0,0,0
1209.2558543303167,2315.164122959599,59.361238271929324,-116.7518574123489,15.270682874604622,0,3,0,0,0
1208.302932328137,2313.255084114149,59.337254064157605,-116.77022228838894,15.271438059335576,0,3,0,0,0
1207.3495961062727,2311.3464505961165,59.31355131138116,-116.80215323472659,15.264528036293767,0,3,0,0,0
1206.3953232885106,2309.439332435839,59.28899987693876,-116.82894633128626,15.259220741861062,0,3,0,0,0
1205.4410372680286,2307.5342239402235,59.269185164012015,-116.86525129354082,15.242368227046642,0,3,0,0,0
1204.4867904891726,2305.6315526375547,59.252164689823985,-116.91677002190497,15.227755206762525,0,3,0,0,0
1203.5315370641765,2303.7313646441326,59.2323481598869,-116.97827652778508,15.207842984145062,0,3,0,0,0
1202.5753723745001,2301.8346016705036,59.21151658613235,-117.0405027146643,15.188275326375388,0,3,0,0,0
1201.618028800469,2299.94162780419,59.195078164339066,-117.11117036991936,15.167776743933826,0,3,0,0,0
1200.659109518514,2298.052267629653,59.17665735259652,-117.18710225484668,15.153353556491226,0,3,0,0,0
1199.69866488775,2296.1670802040026,59.15729192458093,-117.26085387082371,15.124105704661098,0,3,0,0,0
1198.738188583462,2294.28646378126,59.13947687763721,-117.3400972083239,15.103071321583014,0,3,0,0,0
1197.7764347370248,2292.4089558683336,59.12077857833356,-117.41935730182192,15.088018546750327,0,3,0,0,0
1196.8140004121815,2290.534565492533,59.1011012904346,-117.5094007731752,15.06969649881925,0,3,0,0,0
1195.8489831648767,2288.6638076547533,59.07975445501506,-117.59303035898131,15.053415412318074,0,3,0,0,0
1194.8816574304365,2286.7967236833647,59.053285610862076,-117.66795358562551,15.03871661693643,0,3,0,0,0
1193.9127073598793,2284.932535737753,59.02847946342081,-117.74956023656273,15.024224859082793,0,3,0,0,0
1192.9423309179838,2283.0712000466883,59.00221126526594,-117.83674098488146,15.011993953410002,0,3,0,0,0
1191.9700819308055,2281.21297844965,58.972775766626,-117.91673790571232,14.994537850004491,0,3,0,0,0
1190.9963143605855,2279.358282483183,58.94899808522314,-118.00082815986973,14.977463116780456,0,3,0,0,0
1190.0209348095814,2277.507195339538,58.930589192546904,-118.08413324159338,14.957328113552201,0,3,0,0,0
1189.0446096921805,2275.6597998300567,58.915920639410615,-118.17065679045221,14.93602723892053,0,3,0,0,0
1188.0669518833165,2273.8162358868867,58.90170648787171,-118.2539699364479,14.917010819199604,0,3,0,0,0
1187.0876207128167,2271.9770683050156,58.88637689407915,-118.33155239954392,14.894275871580803,0,3,0,0,0
1186.106559964188,2270.1421030564234,58.87117613200098,-118.40464175915089,14.868768337660644,0,3,0,0,0
1185.125374343479,2268.310806780122,58.85825109202415,-118.48400073478722,14.84917736229285,0,3,0,0,0
1184.1437915608985,2266.483157740906,58.846390122547746,-118.56630085413099,14.826270639045767,0,3,0,0,0
1183.161330861447,2264.659436251037,58.8345627784729,-118.64392187851116,14.80423383082809,0,3,0,0,0
1182.1771469346131,2262.8399220593274,58.819662536494434,-118.72007987675863,14.783603700999828,0,3,0,0,0
1181.191929678782,2261.0246655810624,58.802032235078514,-118.80202653368814,14.760865425677412,0,3,0,0,0
1180.2058511850773,2259.213665433228,58.78791728802025,-118.88708664284289,14.733369813804034,0,3,0,0,0
1179.2189679112635,2257.407213033177,58.77794519905001,-118.96963184381306,14.70866353603558,0,3,0,0,0
1178.2307845584,2255.6053450852633,58.76973506528884,-119.0505368377072,14.683146822784725,0,3,0,0,0
1177.2415469826665,2253.8078296091408,58.762324781157076,-119.12569854137797,14.65804800176271,0,3,0,0,0
1176.2514616521075,2252.0142830777913,58.75570978689939,-119.20469333688598,14.637839964326146,0,3,0,0,0
1175.2607100426685,2250.2247461527586,58.74937267508358,-119.28348330233851,14.616164477874895,0,3,0,0,0
1174.268659933994,2248.438964396715,58.744853500276804,-119.36127283315517,14.59836238086182,0,3,0,0,0
1173.2753526816377,2246.6566509148106,58.73912373650819,-119.43028444270149,14.580508065997588,0,3,0,0,0
1172.281119758496,2244.8774566957727,58.73192421346903,-119.49409269376581,14.562460277106561,0,3,0,0,0
1171.2863654513494,2243.1013767616823,58.7269077533856,-119.55137019066515,14.545568820275367,0,3,0,0,0
1170.290574804123,2241.3279087683186,58.72201301250607,-119.59715753914732,14.535346130572117,0,3,0,0,0
1169.2938364579459,2239.5568438163027,58.71692468691617,-119.62790960570983,14.520704154779388,0,3,0,0,0
1168.2970380560146,2237.787705070339,58.71306852065027,-119.65399164146505,14.50964942896977,0,3,0,0,0
1167.3006829629303,2236.0204975465313,58.71199921425432,-119.68348825781139,14.497697794462916,0,3,0,0,0
1166.304293477151,2234.255419317633,58.71104323770851,-119.71148266257373,14.482942774836141,0,3,0,0,0
1165.30836321885,2232.4925320344046,58.71086185332388,-119.73873872437416,14.466875584693348,0,3,0,0,0
1164.312481301371,2230.732005542144,58.71643321681768,-119.76757370313977,14.450021136941215,0,3,0,0,0
1163.3162204985856,2228.9736656434834,58.71896813623607,-119.78752542061679,14.441577088301946,0,3,0,0,0
1162.3197562727146,2227.2173737781122,58.71308226045221,-119.81795441648462,14.430858791770316,0,3,0,0,0
1161.3238597727031,2225.463012237102,58.70603168848902,-119.85520640830946,14.413779374258464,0,3,0,0,0
1160.3281333392952,2223.7105441763997,58.703880230896175,-119.90446845130951,14.399037799779245,0,3,0,0,0
1159.3315000651637,2221.961072275415,58.70428259856999,-119.94700081493612,14.384403105136666,0,3,0,0,0
1158.3343099915073,2220.214373885654,58.7035921998322,-119.98876854486294,14.370028610624152,0,3,0,0,0
1157.3369809439173,2218.470103702508,58.70488789957017,-120.04572904319005,14.355956260205549,0,3,0,0,0
1156.3393061248935,2216.7277553919703,58.702442024834454,-120.10411574667675,14.342031065696105,0,3,0,0,0
1155.3410222741659,2214.9879465876147,58.69951933994889,-120.1619507893775,14.331117356446185,0,3,0,0,0
1154.3417910501594,2213.2509293388575,58.699992024339736,-120.21596051646263,14.314109457691718,0,3,0,0,0
1153.342005522165,2211.5164108732715,58.698617896065116,-120.26829982699861,14.301487130988884,0,3,0,0,0
1152.3413696843782,2209.7846884168684,58.697695180773735,-120.32385851462277,14.28634099318216,0,3,0,0,0
1151.1965784347267,2207.8087997669354,58.69645095895976,-120.38688173106134,14.273311312107,0,3,0,0,0
1150.0509508509422,2205.836232814938,58.69341049809009,-120.45834084425923,14.258556345331373,0,3,0,0,0
1148.9041020520963,2203.8667992055416,58.690708794631064,-120.53301902482598,14.239824245645199,0,3,0,0,0
1147.7554110369529,2201.9017456518486,58.69495242834091,-120.59232102142126,14.222557277354102,0,3,0,0,0
1146.6059657747392,2199.940108668059,58.6985779479146,-120.64536070627996,14.20595016093803,0,3,0,0,0
