x,y,z,yaw,velocity,change_flag,steering_flag,accel_flag,stop_flag,event_flag
1771.35416615801,1374.06103174295,60.5131850466132,-159.801311431603,0.001360523197387,0,0,0,0,0
1771.25583538413,1374.0244887853,60.5098866997287,-159.781091324098,0.354525902056653,0,3,0,0,0
1771.15346849931,1373.98540772032,60.5075471093878,-159.791139738127,0.567457918293185,0,3,0,0,0
1771.05488376826,1373.94916228671,60.5057605309412,-159.758728077549,0.747061932467799,0,3,0,0,0
1770.94563311269,1373.90734259505,60.5035262005404,-159.787186129611,0.922803393572372,0,3,0,0,0
1770.83458852541,1373.86546138674,60.503334405832,-159.802238664726,1.05838111438393,0,3,0,0,0
1770.72990735358,1373.82621175144,60.5040928367525,-159.799110788823,1.16469687582646,0,3,0,0,0
1770.61334206123,1373.7820076542,60.5043935487047,-159.820720169679,1.30493741865601,0,3,0,0,0
1770.51248189999,1373.74372532591,60.5044326325879,-159.840540948841,1.39598801380204,0,3,0,0,0
1770.40458885953,1373.70363290608,60.5042248861864,-159.852138021178,1.48268256565498,0,3,0,0,0
1770.28994855605,1373.66159480251,60.5035184724256,-159.876031643158,1.56750362783714,0,3,0,0,0
1770.16903221002,1373.61755249277,60.5027281716466,-159.891493336062,1.64998298467359,0,3,0,0,0
1770.07453130744,1373.58220014628,60.5021409671754,-159.914061729411,1.71418745052958,0,3,0,0,0
1769.97685166961,1373.54509967472,60.5012581422925,-159.946530534097,1.76852773253362,0,3,0,0,0
1769.87657271535,1373.50672349613,60.5006910637021,-159.975792475331,1.80862046531181,0,3,0,0,0
1769.77400872309,1373.46758768708,60.5012535983697,-159.993552821806,1.85060121525722,0,3,0,0,0
1769.66895961494,1373.42837625835,60.5025228420273,-159.997534261394,1.88702548483527,0,3,0,0,0
1769.56131125661,1373.38934697676,60.5044842036441,-159.999557346021,1.93155558563126,0,3,0,0,0
1769.45131877542,1373.3499469962,60.5062588332221,-160.01232672584,1.9685994521909,0,3,0,0,0
1769.33922196715,1373.30935470574,60.5071267150342,-160.048088755507,2.00691382094922,0,3,0,0,0
1769.22514305997,1373.26765871514,60.506312600337,-160.082619111924,2.04219507948156,0,3,0,0,0
1769.10972054466,1373.22553801257,60.5049978606403,-160.091593703024,2.05524310410608,0,3,0,0,0
1768.99352749187,1373.18276424147,60.5047315564007,-160.104828697711,2.07215105799914,0,3,0,0,0
1768.87642979965,1373.13865739759,60.5059135388583,-160.125945038249,2.09589242234552,0,3,0,0,0
1768.75796491018,1373.09398164786,60.5085694305599,-160.153506226659,2.12372145903245,0,3,0,0,0
1768.63760891004,1373.04952758644,60.5114649031311,-160.172772108992,2.15531990186377,0,3,0,0,0
1768.51524182665,1373.0054671457,60.5131602874026,-160.182133943236,2.18532759228327,0,3,0,0,0
1768.39105275995,1372.96100986283,60.5128653421998,-160.198688971403,2.21297230306789,0,3,0,0,0
1768.2653496975,1372.91582849715,60.5106901470572,-160.226715763276,2.24060505922205,0,3,0,0,0
1768.13795766415,1372.87002901174,60.5073782159016,-160.260060125106,2.2727208973743,0,3,0,0,0
1768.00882691809,1372.82325750869,60.5040279049426,-160.291617525253,2.30357475878809,0,3,0,0,0
1767.87833839859,1372.775626068,60.5017589228228,-160.327621148565,2.32732976331465,0,3,0,0,0
1767.74609200668,1372.72775026411,60.501100987196,-160.358025900486,2.3601711987268,0,3,0,0,0
1767.61230532231,1372.67940350994,60.5018265573308,-160.380829402636,2.38338382666147,0,3,0,0,0
1767.47725327685,1372.63009850681,60.5031504807994,-160.404697424081,2.40812902768848,0,3,0,0,0
1767.34053777106,1372.58038372267,60.5041384948418,-160.430484328293,2.43866081369775,0,3,0,0,0
1767.20230650844,1372.53048183396,60.5048002162948,-160.453004282631,2.46548147766268,0,3,0,0,0
1767.06248949177,1372.48004616331,60.504692860879,-160.48045616257,2.49158986022769,0,3,0,0,0
1766.96841558482,1372.44610484969,60.5040472839028,-160.494315562199,2.50986728595184,0,3,0,0,0
1766.87368063547,1372.41209848691,60.5029949806631,-160.503724975708,2.52346056519992,0,3,0,0,0
1766.77836161666,1372.37798493356,60.501984979026,-160.509710928983,2.54103135094705,0,3,0,0,0
1766.6825067426,1372.34353768174,60.5010581267998,-160.52209109044,2.553979909704,0,3,0,0,0
1766.58622162271,1372.30888359901,60.5006305966526,-160.534275440703,2.56784288413399,0,3,0,0,0
1766.48948919104,1372.27406144887,60.5006683953106,-160.54499057418,2.57590360759553,0,3,0,0,0
1766.3924535719,1372.23913409933,60.5015000840649,-160.545508386631,2.58800481672034,0,3,0,0,0
1766.29488730954,1372.20430245157,60.5029398379847,-160.537684525887,2.59765255692858,0,3,0,0,0
1766.19675377512,1372.16955015529,60.5043068481609,-160.521345444298,2.61173771846699,0,3,0,0,0
1766.09820205084,1372.13480396383,60.5054681235924,-160.499221848214,2.61782378701691,0,3,0,0,0
1765.99931150838,1372.09982072003,60.50620863121,-160.475078232517,2.6279631540912,0,3,0,0,0
1765.89989671076,1372.06434988324,60.506351005286,-160.455337449725,2.64820385120241,0,3,0,0,0
1765.80001809273,1372.02829290554,60.5057315016165,-160.439822624816,2.66318106372081,0,3,0,0,0
1765.69994451152,1371.99189602025,60.5048153763637,-160.427677627543,2.67081855963987,0,3,0,0,0
1765.59944570699,1371.95529332943,60.5038230679929,-160.415868488955,2.67756168050593,0,3,0,0,0
1765.49835936702,1371.91844009608,60.5024349838495,-160.400977162332,2.70082882982653,0,3,0,0,0
1765.39678906009,1371.88150850777,60.5007994314656,-160.383832059696,2.70903258996348,0,3,0,0,0
1765.29479277966,1371.84466355946,60.4993239566684,-160.357497920479,2.71766993892163,0,3,0,0,0
1765.1924158606,1371.80784069095,60.4982642969117,-160.334869580032,2.72428529340504,0,3,0,0,0
1765.08966820646,1371.77081761509,60.4976182570681,-160.312390257526,2.7308161337064,0,3,0,0,0
1764.98639910319,1371.73345852364,60.4975936748087,-160.295552256736,2.75451326746926,0,3,0,0,0
1764.88320438599,1371.69598157611,60.4982199817896,-160.283102192894,2.74857280001844,0,3,0,0,0
1764.77958886593,1371.65825772099,60.4995338991284,-160.271259419637,2.75565550537632,0,3,0,0,0
1764.67569000699,1371.62016846798,60.5010104263201,-160.266108131708,2.77309554883411,0,3,0,0,0
1764.57145837549,1371.58209325001,60.5025440305471,-160.253135908598,2.78194718694036,0,3,0,0,0
1764.46693691844,1371.54367470834,60.5036909151822,-160.246112766226,2.78770811154591,0,3,0,0,0
1764.36182723846,1371.50494922698,60.5043868068606,-160.235144039405,2.80811854872879,0,3,0,0,0
1764.25621835759,1371.46614907496,60.5044143628329,-160.216584502167,2.82129865910385,0,3,0,0,0
1764.15008358628,1371.42728398275,60.5037629585713,-160.192424845015,2.83150054310708,0,3,0,0,0
1764.04352616105,1371.38830022234,60.5027721915394,-160.164602918928,2.84353643187611,0,3,0,0,0
1763.93658517319,1371.34908472653,60.5013805171475,-160.141035126273,2.85432251258472,0,3,0,0,0
1763.82930658269,1371.30970168486,60.499979541637,-160.122001585241,2.86412005695898,0,3,0,0,0
1763.72167468525,1371.27014015429,60.4986103801057,-160.10953061764,2.87161767369052,0,3,0,0,0
1763.61368373293,1371.23036730103,60.4974243566394,-160.098384820129,2.8815919914527,0,3,0,0,0
1763.50520628848,1371.19049283396,60.4966436605901,-160.086546073094,2.89752855178642,0,3,0,0,0
1763.39641582331,1371.15038679913,60.4964707754552,-160.083814903684,2.9053454590958,0,3,0,0,0
1763.28702740843,1371.11012873054,60.4964637625963,-160.069187565333,2.92227836771635,0,3,0,0,0
1763.17710457329,1371.06949174684,60.4962609754875,-160.052887054992,2.93785298944138,0,3,0,0,0
1763.06673951587,1371.02828414645,60.4958267975599,-160.034816778581,2.95560629131428,0,3,0,0,0
1762.95584871736,1370.98675762396,60.4951495425776,-160.016256012226,2.96778788563459,0,3,0,0,0
1762.84447246813,1370.94497057796,60.4943931251764,-159.994018501209,2.9858738806802,0,3,0,0,0
1762.73258224112,1370.90298825689,60.4937445009127,-159.964045376301,2.99532063003541,0,3,0,0,0
1762.62016978959,1370.86058978643,60.4932508058846,-159.940453066329,3.01266338052393,0,3,0,0,0
1762.50733332068,1370.81797846779,60.4932355452329,-159.918223626038,3.0240035757381,0,3,0,0,0
1762.39414006902,1370.77507451177,60.4936952600256,-159.912317920931,3.03469601722568,0,3,0,0,0
1762.28018226079,1370.73241830524,60.4943318460137,-159.898762085555,3.05168026619829,0,3,0,0,0
1762.16562291526,1370.69014668651,60.494884707965,-159.879036196042,3.06162101507175,0,3,0,0,0
1762.05032845709,1370.64805275947,60.495071795769,-159.851664779425,3.07823773139472,0,3,0,0,0
1761.9344927636,1370.60574224126,60.494783363305,-159.811396254985,3.08983731283555,0,3,0,0,0
1761.81824355893,1370.56285963859,60.4944465793669,-159.785528488139,3.11018598497441,0,3,0,0,0
1761.70157349767,1370.51940901019,60.4939589947462,-159.762852532018,3.11907329143765,0,3,0,0,0
1761.58445720375,1370.47542523593,60.4932491956279,-159.742360639018,3.13797208995627,0,3,0,0,0
1761.46689900843,1370.43097107857,60.4926082547754,-159.733724150914,3.15179947422878,0,3,0,0,0
1761.34890007664,1370.38615160435,60.4919997463003,-159.720681192201,3.16382041618061,0,3,0,0,0
1761.23028878798,1370.34094894771,60.4915273487568,-159.704393846882,3.18129059977128,0,3,0,0,0
1761.11115186487,1370.29569591582,60.4912324454635,-159.685861127142,3.19445653991741,0,3,0,0,0
1760.99136507389,1370.25052101072,60.4914630781859,-159.666218153403,3.2107556134807,0,3,0,0,0
1760.87084175821,1370.20552834496,60.4919739952311,-159.642186379797,3.22743207595242,0,3,0,0,0
1760.74960257416,1370.16065579094,60.4926397698,-159.620344933487,3.23993576957224,0,3,0,0,0
1760.62785061303,1370.11546635721,60.4934400264174,-159.607452570579,3.25567982714069,0,3,0,0,0
1760.50556299585,1370.06976345275,60.4941311720759,-159.602863300694,3.27045547634017,0,3,0,0,0
1760.38261535979,1370.02348642424,60.4946044310927,-159.598230415928,3.29345069323558,0,3,0,0,0
1760.25930492819,1369.97645462397,60.4950209669769,-159.59647832062,3.31170167835089,0,3,0,0,0
1760.1355324813,1369.92865853757,60.4953890657052,-159.597864776256,3.33123203118721,0,3,0,0,0
1760.01097494777,1369.88042111415,60.4953595427796,-159.595893205698,3.35228985053931,0,3,0,0,0
1759.88549248286,1369.83199410606,60.4948270171881,-159.574756331532,3.37576405731583,0,3,0,0,0
1759.75908438058,1369.78340873495,60.4937901906669,-159.539116299686,3.39997784154326,0,3,0,0,0
1759.63188844454,1369.73468623403,60.4929106952623,-159.503769145423,3.41794294056468,0,3,0,0,0
1759.5039305297,1369.68567004334,60.4921432100236,-159.473567021336,3.43698514857085,0,3,0,0,0
1759.37504229497,1369.63621848915,60.4917393401265,-159.455294478888,3.46366314685949,0,3,0,0,0
1759.24532273965,1369.58642853983,60.491216362454,-159.448494419874,3.49181850575413,0,3,0,0,0
1759.11442908092,1369.53608117718,60.4906332809478,-159.450443926913,3.52884817687601,0,3,0,0,0
1758.98257087724,1369.48546590935,60.4900917746127,-159.444885134984,3.54425338701274,0,3,0,0,0
1758.84932597581,1369.43440175802,60.4898609090597,-159.444807665338,3.5851807766102,0,3,0,0,0
1758.71496190445,1369.38305327576,60.4897900056094,-159.432606144687,3.61993656627162,0,3,0,0,0
1758.5792644507,1369.33158143889,60.4898958746344,-159.411915457038,3.64867232053072,0,3,0,0,0
1758.44230449095,1369.28009170666,60.4903781330213,-159.37965248013,3.67486110558708,0,3,0,0,0
1758.30432434252,1369.22815930843,60.4912263266742,-159.351358076547,3.70181215500711,0,3,0,0,0
1758.16503458895,1369.17544124462,60.4916465757415,-159.329868629232,3.73728184887438,0,3,0,0,0
1758.0245531585,1369.12242801953,60.4920779820532,-159.304025437172,3.76944892284717,0,3,0,0,0
1757.88255526812,1369.06891748495,60.4925349010155,-159.27957816772,3.81752106918831,0,3,0,0,0
1757.73914379161,1369.01454454195,60.4925053883344,-159.255478918643,3.85449271479204,0,3,0,0,0
1757.5943387688,1368.95916455053,60.4919138131663,-159.235661914848,3.89847900063272,0,3,0,0,0
1757.44836425857,1368.90274342429,60.4909538663924,-159.226330464026,3.93476811990415,0,3,0,0,0
1757.30109756999,1368.84544058144,60.489469694905,-159.215610295406,3.96940353709054,0,3,0,0,0
1757.15265813173,1368.78756174073,60.4878911832348,-159.208553349067,4.00073890803201,0,3,0,0,0
1757.00303400552,1368.72910866141,60.4863761309534,-159.19851256477,4.03133358152355,0,3,0,0,0
1756.85241152742,1368.67025726009,60.4851546911523,-159.188601433474,4.06619193008932,0,3,0,0,0
1756.70094770502,1368.6111439243,60.4844419490546,-159.166781869538,4.08140311679417,0,3,0,0,0
1756.54855388298,1368.55179147609,60.4849194837734,-159.132378090204,4.10830932201855,0,3,0,0,0
1756.39528794645,1368.49204559531,60.4854441862553,-159.095563381187,4.12656656603033,0,3,0,0,0
1756.2412531632,1368.43216749746,60.4857273800299,-159.047483704386,4.15008756983114,0,3,0,0,0
1756.08640567667,1368.37204469647,60.4859484080225,-159.013053455792,4.16739646094788,0,3,0,0,0
1755.93089233473,1368.31174789462,60.4858381208032,-158.976436399105,4.1851869305606,0,3,0,0,0
1755.77484640601,1368.25110366195,60.4854790624231,-158.951189536342,4.20393325715859,0,3,0,0,0
1755.61827402876,1368.19006590638,60.4846731983125,-158.924471701462,4.2151833858293,0,3,0,0,0
1755.46129740699,1368.12867918797,60.4831629982218,-158.899134889521,4.22553284874414,0,3,0,0,0
1755.30396493798,1368.06695452146,60.4815198304132,-158.872048127054,4.23903859307362,0,3,0,0,0
1755.14617706381,1368.00497069396,60.4794682683423,-158.849867498718,4.25164074179109,0,3,0,0,0
1754.98807939631,1367.9426459875,60.4768744669855,-158.828783028108,4.26346394202972,0,3,0,0,0
1754.8296635907,1367.87997535244,60.4741962235421,-158.815028857872,4.27440941448456,0,3,0,0,0
1754.67090645345,1367.8168343734,60.4711359022185,-158.794797237354,4.27977953748272,0,3,0,0,0
1754.51217831997,1367.75370084215,60.468636399135,-158.772656743439,4.27486022612336,0,3,0,0,0
1754.35305083223,1367.69072592538,60.4668925590813,-158.751907020181,4.2861319466681,0,3,0,0,0
1754.19378524588,1367.62790201977,60.4660703176633,-158.734278458195,4.28902631371216,0,3,0,0,0
1754.03443517379,1367.56513634417,60.4663137067109,-158.723682292311,4.28034497575564,0,3,0,0,0
1753.8753971596,1367.50192799699,60.4675155123696,-158.723479330499,4.2884075431963,0,3,0,0,0
1753.71648678288,1367.43857272714,60.469733110629,-158.717296359474,4.28808230057808,0,3,0,0,0
1753.55774991139,1367.37506262586,60.4724418725818,-158.710940149204,4.27309905826183,0,3,0,0,0
1753.39899336518,1367.31177505851,60.4753709845245,-158.688196546799,4.27818998357187,0,3,0,0,0
1753.24050056899,1367.24871839862,60.4778516311198,-158.657685629511,4.26432850481903,0,3,0,0,0
1753.08200843947,1367.18558886368,60.4795114379376,-158.632564216976,4.27127684023164,0,3,0,0,0
1752.92379267397,1367.1225663228,60.4801096729934,-158.616891069283,4.26217770877767,0,3,0,0,0
1752.76569503261,1367.05914667528,60.4800619967282,-158.607193382989,4.27460731019484,0,3,0,0,0
1752.60789789789,1366.99572559632,60.4786642789841,-158.591241620207,4.25298221543708,0,3,0,0,0
1752.45024856378,1366.93205898348,60.4767179042101,-158.583893973675,4.25673317845672,0,3,0,0,0
1752.2928844532,1366.86843583267,60.4742590002716,-158.564195397773,4.24151698670252,0,3,0,0,0
1752.13548171689,1366.80487170164,60.4712868882343,-158.541543668735,4.24166046058742,0,3,0,0,0
1751.97816124896,1366.7415288575,60.4683512598276,-158.510366466858,4.2454054483626,0,3,0,0,0
1751.8212928127,1366.67859102506,60.4671314777806,-158.479790815882,4.23568605986942,0,3,0,0,0
1751.66451934364,1366.61612147931,60.4670112477615,-158.443708591586,4.21618793289304,0,3,0,0,0
1751.50778390234,1366.55404037144,60.4680495681241,-158.404583226573,4.21234201383587,0,3,0,0,0
1751.3514879322,1366.49193434883,60.4701327932999,-158.382974767495,4.21015478935188,0,3,0,0,0
1751.19570504135,1366.4295591563,60.4730062438175,-158.360423359932,4.19057820430896,0,3,0,0,0
1751.04012101085,1366.36696382146,60.4758341442794,-158.348442828704,4.19332278106142,0,3,0,0,0
1750.88513216597,1366.30401013605,60.4788585687056,-158.346459792058,4.18958081670462,0,3,0,0,0
1750.73056386499,1366.24115208909,60.481240157038,-158.325648096096,4.17026566165985,0,3,0,0,0
1750.57631562132,1366.17834489793,60.4832178018987,-158.309974085533,4.16367981964252,0,3,0,0,0
1750.42205525422,1366.11567179579,60.484105550684,-158.280749422512,4.16889313031025,0,3,0,0,0
1750.26818804594,1366.05317081325,60.4838447179645,-158.249196456457,4.15285512254428,0,2,0,0,0
1750.11446126871,1365.99011341762,60.4822032470256,-158.225723011172,4.15340432099915,0,2,0,0,0
1749.96146046399,1365.92659971118,60.4799170410261,-158.213049337835,4.14747708468289,0,2,0,0,0
1749.80838236114,1365.86305518355,60.4775290898979,-158.209278031858,4.14824884619075,0,2,0,0,0
1749.65577357291,1365.7999967318,60.4756395453587,-158.201643163925,4.13040893274815,0,2,0,0,0
1749.50307050603,1365.73714740761,60.4742714418098,-158.202104042673,4.13858179318137,0,2,0,0,0
1749.3503779181,1365.67493781634,60.4733709385619,-158.173130639714,4.12172774862855,0,2,0,0,0
1749.1976609471,1365.61276473012,60.4731075968593,-158.149570987569,4.12385842905083,0,2,0,0,0
1749.04523925274,1365.55077754054,60.4731654310599,-158.110268480103,4.1172342312719,0,2,0,0,0
1748.8932365083,1365.48855128605,60.4740135520697,-158.087602230517,4.11436208848012,0,2,0,0,0
1748.74113992509,1365.426494346,60.4751329924911,-158.065751739013,4.10687072247325,0,2,0,0,0
1748.58935681073,1365.36427856702,60.4764923118055,-158.043779817831,4.10486013947595,0,2,0,0,0
1748.43805376638,1365.30154058803,60.4781002765521,-158.039218144987,4.09513008751824,0,2,0,0,0
1748.28699500748,1365.23862649966,60.4791050022468,-158.022863882968,4.091533763463,0,2,0,0,0
1748.13634387567,1365.17543811724,60.4798488421366,-158.029540580605,4.08666319677023,0,2,0,0,0
1747.98620918754,1365.11258375179,60.4801677875221,-158.022824917287,4.06726784992082,0,2,0,0,0
1747.83624032215,1365.04998057894,60.4799188310281,-158.019062144275,4.06106326838706,0,2,0,0,0
1747.6865746855,1364.98804842401,60.479009937495,-158.000974319882,4.04775371092004,0,2,0,0,0
1747.53715518746,1364.9268782679,60.4779609031975,-157.984795771973,4.03161290815115,0,2,0,0,0
1747.38760452502,1364.8663868662,60.4766367012635,-157.960390089734,4.0402982487394,0,2,0,0,0
1747.2381201752,1364.80612797104,60.4748680908233,-157.939082739287,4.03068388924105,0,2,0,0,0
1747.08899937361,1364.74580988847,60.4732303787023,-157.903472999619,4.01934322907529,0,2,0,0,0
1746.94027306122,1364.68478693254,60.472331543453,-157.877618815757,4.02316522337398,0,2,0,0,0
1746.79207636841,1364.62302090693,60.4712618906051,-157.856078074104,4.01608406082288,0,2,0,0,0
1746.64421617816,1364.56080538966,60.4703217195347,-157.832576071353,4.01440432813087,0,2,0,0,0
1746.49681257852,1364.49853185192,60.4699090123177,-157.818060073704,3.99669692779862,0,2,0,0,0
1746.34953294473,1364.43630736507,60.4704583566636,-157.797218335449,3.99996319792661,0,2,0,0,0
1746.20218163729,1364.37418985087,60.4712009867653,-157.778627541819,4.00086738973303,0,2,0,0,0
1746.05507883063,1364.31182854995,60.4715549536049,-157.769756888185,3.99827818033261,0,2,0,0,0
1745.90807710175,1364.24943666998,60.4718342935666,-157.76175302253,3.99898285734743,0,2,0,0,0
1745.76131541276,1364.18754693214,60.4723747475073,-157.737856709958,3.98343891704235,0,2,0,0,0
1745.61460937036,1364.12569307443,60.4729360118508,-157.710198407042,3.98268904739578,0,2,0,0,0
1745.46803053067,1364.06457378995,60.4743863642216,-157.677462269824,3.96953807737108,0,2,0,0,0
1745.32136775838,1364.00386523176,60.4772014608607,-157.645584326428,3.96382367277155,0,2,0,0,0
1745.17502603284,1363.94403037801,60.4815272204578,-157.605390256676,3.94740354496539,0,2,0,0,0
1745.02922058589,1363.8847401645,60.487461454235,-157.555683311851,3.92565029159311,0,2,0,0,0
1744.88399865286,1363.82540587429,60.4946487909183,-157.538751166051,3.92163737007159,0,2,0,0,0
1744.73941792833,1363.76575233787,60.5015575904399,-157.524955219696,3.906824629207,0,2,0,0,0
1744.5958384425,1363.70525923092,60.5069903274998,-157.547609424819,3.89219024186102,0,2,0,0,0
1744.45268542058,1363.64383146632,60.5107214972377,-157.557148921604,3.8927942799261,0,2,0,0,0
1744.31017924967,1363.58183839265,60.512346890755,-157.565167572513,3.8892769361348,0,2,0,0,0
